CCC Angle (Degree),TotEng (kcal/mol),St Dev of TotEng (kcal/mol)
60,1.9301128,
65,1.7321904,
70,1.4681166,
75,1.160809,
80,0.83819971,
85,0.53100659,
90,0.27040576,
95,0.085688551,
100,0.0025089862,
105,0.042002556,
110,0.22071663,
115,0.55110153,
120,1.0419482,
125,1.699429,
130,2.5271478,
135,3.5262562,
140,4.6959309,
145,6.032671,
