Tau (ps),MSD (Å^2)
0,0
1,2.978
2,5.462
3,7.916
4,10.32
5,12.71
6,15.07
7,17.36
8,19.63
9,21.82
10,23.92
11,26
12,28.03
13,30.02
14,32.01
15,34
16,35.9
17,37.8
18,39.68
19,41.63
20,43.51
21,45.54
22,47.69
23,49.69
24,51.49
25,53.43
26,55.38
27,57.78
28,59.97
29,62.92
