CCC Angle (Degree),TotEng (kcal/mol),St Dev of TotEng (kcal/mol)
60,1.9301662,
65,1.7322122,
70,1.4681055,
75,1.1608092,
80,0.83821773,
85,0.5310064,
90,0.27040636,
95,0.085689099,
100,0.00250894,
105,0.042002501,
110,0.22071593,
115,0.55112225,
120,1.0419469,
125,1.6994185,
130,2.527072,
135,3.5262502,
140,4.6959046,
145,6.0337813,
