CCC angle (degree),TotEng (kcal/mol),St Dev of TotEng (kcal/mol)
60,75.593819,
65,63.085039,
70,49.642323,
75,38.020823,
80,27.948007,
85,19.430061,
90,12.479921,
95,7.0787801,
100,3.2539775,
105,1.0003287,
110,0.31778142,
115,1.2013419,
120,3.637906,
125,7.6021035,
130,13.056299,
135,19.925339,
140,28.128439,
145,37.549601,
