Tau (ps) (300 2400),MSD (Å^2)
0,0
1,4.397
2,8.947
3,13.26
4,17.37
5,21.34
6,25.18
7,28.93
8,32.6
9,36.21
10,39.77
11,43.29
12,46.78
13,50.25
14,53.69
15,57.09
16,60.47
17,63.83
18,67.18
19,70.51
20,73.82
21,77.12
22,80.42
23,83.71
24,87
25,90.27
26,93.54
27,96.79
28,100
29,103.3
30,106.5
31,109.8
32,113
33,116.3
34,119.6
35,122.8
36,126.1
37,129.3
38,132.6
39,135.8
40,139.1
41,142.3
42,145.6
43,148.8
44,152.1
45,155.3
46,158.5
47,161.8
48,165
49,168.3
50,171.6
51,174.8
52,178
53,181.3
54,184.6
55,187.8
56,191.1
57,194.3
58,197.6
59,200.8
60,204.1
61,207.4
62,210.6
63,213.9
64,217.2
65,220.5
66,223.8
67,227
68,230.3
69,233.6
70,236.9
71,240.2
72,243.5
73,246.8
74,250
75,253.3
76,256.6
77,259.9
78,263.2
79,266.5
80,269.7
81,273
82,276.3
83,279.6
84,282.9
85,286.1
86,289.4
87,292.7
88,295.9
89,299.2
90,302.4
91,305.7
92,309
93,312.3
94,315.5
95,318.8
96,322.1
97,325.3
98,328.6
99,331.8
100,335.1
101,338.4
102,341.7
103,345
104,348.2
105,351.5
106,354.8
107,358.1
108,361.4
109,364.7
110,368
111,371.3
112,374.6
113,377.9
114,381.2
115,384.5
116,387.8
117,391.1
118,394.4
119,397.6
120,400.9
121,404.2
122,407.5
123,410.7
124,414
125,417.3
126,420.6
127,423.8
128,427.1
129,430.4
130,433.7
131,436.9
132,440.2
133,443.4
134,446.7
135,449.9
136,453.2
137,456.4
138,459.7
139,463
140,466.2
141,469.5
142,472.8
143,476
144,479.3
145,482.5
146,485.8
147,489.1
148,492.4
149,495.6
150,498.9
151,502.2
152,505.5
153,508.8
154,512
155,515.3
156,518.6
157,521.9
158,525.2
159,528.5
160,531.8
161,535.1
162,538.4
163,541.7
164,545
165,548.2
166,551.5
167,554.8
168,558.1
169,561.4
170,564.7
171,568
172,571.3
173,574.6
174,577.9
175,581.2
176,584.5
177,587.8
178,591
179,594.3
180,597.6
181,600.9
182,604.2
183,607.4
184,610.7
185,614
186,617.3
187,620.5
188,623.8
189,627.1
190,630.3
191,633.6
192,636.8
193,640.1
194,643.3
195,646.6
196,649.8
197,653.1
198,656.3
199,659.5
200,662.8
201,666
202,669.2
203,672.4
204,675.7
205,678.9
206,682.1
207,685.4
208,688.6
209,691.8
210,695
211,698.2
212,701.4
213,704.5
214,707.7
215,710.9
216,714.1
217,717.3
218,720.5
219,723.7
220,726.9
221,730
222,733.2
223,736.4
224,739.6
225,742.8
226,745.9
227,749.1
228,752.3
229,755.5
230,758.7
231,761.8
232,765
233,768.1
234,771.3
235,774.5
236,777.6
237,780.8
238,783.9
239,787.1
240,790.3
241,793.5
242,796.7
243,799.9
244,803.1
245,806.3
246,809.5
247,812.7
248,815.9
249,819.1
250,822.3
251,825.5
252,828.7
253,831.9
254,835.1
255,838.3
256,841.5
257,844.7
258,847.9
259,851.1
260,854.3
261,857.5
262,860.7
263,863.9
264,867.1
265,870.3
266,873.5
267,876.7
268,879.9
269,883.1
270,886.3
271,889.4
272,892.6
273,895.8
274,899
275,902.2
276,905.3
277,908.5
278,911.7
279,914.9
280,918.1
281,921.3
282,924.5
283,927.7
284,930.9
285,934.1
286,937.4
287,940.6
288,943.8
289,947.1
290,950.3
291,953.5
292,956.8
293,960
294,963.2
295,966.5
296,969.7
297,972.9
298,976.1
299,979.4
300,982.6
301,985.9
302,989.1
303,992.3
304,995.6
305,998.8
306,1002
307,1005
308,1009
309,1012
310,1015
311,1018
312,1022
313,1025
314,1028
315,1032
316,1035
317,1038
318,1042
319,1045
320,1048
321,1051
322,1055
323,1058
324,1061
325,1065
326,1068
327,1071
328,1074
329,1078
330,1081
331,1084
332,1087
333,1091
334,1094
335,1097
336,1100
337,1104
338,1107
339,1110
340,1114
341,1117
342,1120
343,1123
344,1127
345,1130
346,1133
347,1136
348,1140
349,1143
350,1146
351,1150
352,1153
353,1156
354,1159
355,1163
356,1166
357,1169
358,1173
359,1176
360,1179
361,1182
362,1186
363,1189
364,1192
365,1196
366,1199
367,1202
368,1205
369,1209
370,1212
371,1215
372,1219
373,1222
374,1225
375,1228
376,1232
377,1235
378,1238
379,1242
380,1245
381,1248
382,1251
383,1255
384,1258
385,1261
386,1265
387,1268
388,1271
389,1274
390,1278
391,1281
392,1284
393,1287
394,1291
395,1294
396,1297
397,1301
398,1304
399,1307
400,1310
401,1314
402,1317
403,1320
404,1324
405,1327
406,1330
407,1334
408,1337
409,1340
410,1343
411,1347
412,1350
413,1353
414,1357
415,1360
416,1363
417,1367
418,1370
419,1373
420,1377
421,1380
422,1383
423,1386
424,1390
425,1393
426,1396
427,1400
428,1403
429,1406
430,1410
431,1413
432,1416
433,1419
434,1423
435,1426
436,1429
437,1432
438,1436
439,1439
440,1442
441,1445
442,1449
443,1452
444,1455
445,1458
446,1462
447,1465
448,1468
449,1472
450,1475
451,1478
452,1481
453,1485
454,1488
455,1491
456,1494
457,1498
458,1501
459,1504
460,1507
461,1511
462,1514
463,1517
464,1521
465,1524
466,1527
467,1530
468,1534
469,1537
470,1540
471,1544
472,1547
473,1550
474,1554
475,1557
476,1560
477,1564
478,1567
479,1570
480,1574
481,1577
482,1580
483,1584
484,1587
485,1590
486,1594
487,1597
488,1600
489,1604
490,1607
491,1610
492,1614
493,1617
494,1620
495,1623
496,1627
497,1630
498,1633
499,1637
500,1640
501,1643
502,1647
503,1650
504,1653
505,1657
506,1660
507,1663
508,1667
509,1670
510,1673
511,1677
512,1680
513,1683
514,1687
515,1690
516,1693
517,1696
518,1700
519,1703
520,1706
521,1710
522,1713
523,1716
524,1720
525,1723
526,1727
527,1730
528,1733
529,1737
530,1740
531,1743
532,1747
533,1750
534,1753
535,1756
536,1760
537,1763
538,1766
539,1770
540,1773
541,1776
542,1780
543,1783
544,1786
545,1790
546,1793
547,1796
548,1799
549,1803
550,1806
551,1809
552,1813
553,1816
554,1819
555,1823
556,1826
557,1829
558,1833
559,1836
560,1839
561,1842
562,1846
563,1849
564,1852
565,1856
566,1859
567,1862
568,1866
569,1869
570,1872
571,1876
572,1879
573,1882
574,1886
575,1889
576,1892
577,1896
578,1899
579,1902
580,1906
581,1909
582,1912
583,1915
584,1919
585,1922
586,1925
587,1929
588,1932
589,1935
590,1939
591,1942
592,1945
593,1949
594,1952
595,1955
596,1958
597,1962
598,1965
599,1968
600,1972
601,1975
602,1978
603,1982
604,1985
605,1988
606,1991
607,1995
608,1998
609,2001
610,2005
611,2008
612,2011
613,2015
614,2018
615,2021
616,2025
617,2028
618,2031
619,2035
620,2038
621,2041
622,2045
623,2048
624,2051
625,2055
626,2058
627,2061
628,2065
629,2068
630,2071
631,2075
632,2078
633,2082
634,2085
635,2088
636,2092
637,2095
638,2098
639,2102
640,2105
641,2109
642,2112
643,2115
644,2119
645,2122
646,2126
647,2129
648,2132
649,2136
650,2139
651,2143
652,2146
653,2149
654,2153
655,2156
656,2160
657,2163
658,2166
659,2170
660,2173
661,2177
662,2180
663,2183
664,2187
665,2190
666,2194
667,2197
668,2200
669,2204
670,2207
671,2210
672,2214
673,2217
674,2220
675,2224
676,2227
677,2230
678,2234
679,2237
680,2240
681,2244
682,2247
683,2250
684,2254
685,2257
686,2260
687,2263
688,2267
689,2270
690,2273
691,2277
692,2280
693,2283
694,2287
695,2290
696,2293
697,2297
698,2300
699,2303
700,2307
701,2310
702,2313
703,2317
704,2320
705,2323
706,2327
707,2330
708,2334
709,2337
710,2340
711,2343
712,2347
713,2350
714,2353
715,2357
716,2360
717,2363
718,2367
719,2370
720,2373
721,2377
722,2380
723,2383
724,2386
725,2390
726,2393
727,2396
728,2400
729,2403
730,2406
731,2410
732,2413
733,2416
734,2420
735,2423
736,2426
737,2430
738,2433
739,2436
740,2440
741,2443
742,2446
743,2450
744,2453
745,2456
746,2460
747,2463
748,2467
749,2470
750,2473
751,2477
752,2480
753,2484
754,2487
755,2490
756,2494
757,2497
758,2501
759,2504
760,2507
761,2511
762,2514
763,2518
764,2521
765,2524
766,2528
767,2531
768,2535
769,2538
770,2541
771,2545
772,2548
773,2551
774,2555
775,2558
776,2561
777,2565
778,2568
779,2572
780,2575
781,2578
782,2582
783,2585
784,2588
785,2591
786,2595
787,2598
788,2601
789,2605
790,2608
791,2611
792,2615
793,2618
794,2621
795,2624
796,2628
797,2631
798,2634
799,2637
800,2641
801,2644
802,2647
803,2650
804,2654
805,2657
806,2660
807,2664
808,2667
809,2670
810,2674
811,2677
812,2680
813,2684
814,2687
815,2690
816,2693
817,2697
818,2700
819,2703
820,2707
821,2710
822,2713
823,2716
824,2720
825,2723
826,2726
827,2729
828,2733
829,2736
830,2739
831,2742
832,2746
833,2749
834,2752
835,2755
836,2759
837,2762
838,2765
839,2768
840,2772
841,2775
842,2778
843,2781
844,2785
845,2788
846,2791
847,2794
848,2798
849,2801
850,2804
851,2807
852,2810
853,2814
854,2817
855,2820
856,2823
857,2827
858,2830
859,2833
860,2836
861,2839
862,2843
863,2846
864,2849
865,2853
866,2856
867,2859
868,2862
869,2866
870,2869
871,2872
872,2876
873,2879
874,2882
875,2885
876,2889
877,2892
878,2895
879,2898
880,2902
881,2905
882,2908
883,2912
884,2915
885,2918
886,2922
887,2925
888,2928
889,2932
890,2935
891,2939
892,2942
893,2945
894,2949
895,2952
896,2955
897,2959
898,2962
899,2965
900,2969
901,2972
902,2976
903,2979
904,2982
905,2986
906,2989
907,2993
908,2996
909,2999
910,3003
911,3006
912,3010
913,3013
914,3016
915,3020
916,3023
917,3027
918,3030
919,3033
920,3037
921,3040
922,3044
923,3047
924,3050
925,3054
926,3057
927,3061
928,3064
929,3067
930,3071
931,3074
932,3078
933,3081
934,3084
935,3088
936,3091
937,3095
938,3098
939,3102
940,3105
941,3109
942,3112
943,3115
944,3119
945,3122
946,3126
947,3129
948,3133
949,3136
950,3139
951,3143
952,3146
953,3150
954,3153
955,3156
956,3160
957,3163
958,3167
959,3170
960,3173
961,3177
962,3180
963,3183
964,3187
965,3190
966,3193
967,3197
968,3200
969,3204
970,3207
971,3210
972,3214
973,3217
974,3220
975,3224
976,3227
977,3230
978,3234
979,3237
980,3240
981,3243
982,3247
983,3250
984,3253
985,3257
986,3260
987,3263
988,3267
989,3270
990,3273
991,3277
992,3280
993,3283
994,3287
995,3290
996,3293
997,3297
998,3300
999,3303
1000,3307
1001,3310
1002,3313
1003,3317
1004,3320
1005,3323
1006,3327
1007,3330
1008,3334
1009,3337
1010,3340
1011,3344
1012,3347
1013,3350
1014,3354
1015,3357
1016,3360
1017,3364
1018,3367
1019,3370
1020,3374
1021,3377
1022,3380
1023,3384
1024,3387
1025,3390
1026,3394
1027,3397
1028,3401
1029,3404
1030,3407
1031,3411
1032,3414
1033,3417
1034,3421
1035,3424
1036,3428
1037,3431
1038,3434
1039,3438
1040,3441
1041,3445
1042,3448
1043,3451
1044,3455
1045,3458
1046,3461
1047,3465
1048,3468
1049,3472
1050,3475
1051,3478
1052,3482
1053,3485
1054,3489
1055,3492
1056,3495
1057,3499
1058,3502
1059,3506
1060,3509
1061,3513
1062,3516
1063,3519
1064,3523
1065,3526
1066,3530
1067,3533
1068,3536
1069,3540
1070,3543
1071,3547
1072,3550
1073,3554
1074,3557
1075,3560
1076,3564
1077,3567
1078,3571
1079,3574
1080,3577
1081,3581
1082,3584
1083,3588
1084,3591
1085,3595
1086,3598
1087,3601
1088,3605
1089,3608
1090,3612
1091,3615
1092,3619
1093,3622
1094,3625
1095,3629
1096,3632
1097,3636
1098,3639
1099,3643
1100,3646
1101,3650
1102,3653
1103,3657
1104,3660
1105,3664
1106,3667
1107,3671
1108,3674
1109,3678
1110,3681
1111,3685
1112,3688
1113,3692
1114,3695
1115,3699
1116,3703
1117,3706
1118,3710
1119,3713
1120,3717
1121,3720
1122,3724
1123,3727
1124,3731
1125,3735
1126,3738
1127,3742
1128,3745
1129,3749
1130,3752
1131,3756
1132,3759
1133,3763
1134,3766
1135,3770
1136,3773
1137,3777
1138,3780
1139,3784
1140,3787
1141,3791
1142,3794
1143,3798
1144,3802
1145,3805
1146,3809
1147,3812
1148,3816
1149,3820
1150,3823
1151,3827
1152,3830
1153,3834
1154,3837
1155,3841
1156,3845
1157,3848
1158,3852
1159,3855
1160,3859
1161,3862
1162,3866
1163,3869
1164,3873
1165,3876
1166,3880
1167,3883
1168,3887
1169,3890
1170,3894
1171,3897
1172,3901
1173,3904
1174,3908
1175,3911
1176,3915
1177,3918
1178,3921
1179,3925
1180,3928
1181,3932
1182,3935
1183,3939
1184,3942
1185,3946
1186,3949
1187,3953
1188,3956
1189,3960
1190,3963
1191,3967
1192,3970
1193,3974
1194,3977
1195,3981
1196,3984
1197,3988
1198,3992
1199,3995
1200,3999
1201,4002
1202,4006
1203,4010
1204,4013
1205,4017
1206,4020
1207,4024
1208,4028
1209,4031
1210,4035
1211,4038
1212,4042
1213,4046
1214,4049
1215,4053
1216,4057
1217,4060
1218,4064
1219,4067
1220,4071
1221,4075
1222,4079
1223,4082
1224,4086
1225,4090
1226,4093
1227,4097
1228,4101
1229,4104
1230,4108
1231,4112
1232,4115
1233,4119
1234,4122
1235,4126
1236,4130
1237,4133
1238,4137
1239,4141
1240,4144
1241,4148
1242,4152
1243,4155
1244,4159
1245,4163
1246,4166
1247,4170
1248,4174
1249,4178
1250,4181
1251,4185
1252,4189
1253,4192
1254,4196
1255,4200
1256,4203
1257,4207
1258,4211
1259,4214
1260,4218
1261,4222
1262,4225
1263,4229
1264,4233
1265,4236
1266,4240
1267,4244
1268,4247
1269,4251
1270,4254
1271,4258
1272,4262
1273,4265
1274,4269
1275,4272
1276,4276
1277,4280
1278,4283
1279,4287
1280,4290
1281,4294
1282,4298
1283,4301
1284,4305
1285,4308
1286,4312
1287,4315
1288,4319
1289,4323
1290,4326
1291,4330
1292,4333
1293,4337
1294,4340
1295,4344
1296,4348
1297,4351
1298,4355
1299,4358
1300,4362
1301,4366
1302,4369
1303,4373
1304,4377
1305,4380
1306,4384
1307,4388
1308,4391
1309,4395
1310,4399
1311,4402
1312,4406
1313,4409
1314,4413
1315,4416
1316,4420
1317,4424
1318,4427
1319,4431
1320,4434
1321,4438
1322,4441
1323,4445
1324,4448
1325,4452
1326,4456
1327,4459
1328,4463
1329,4466
1330,4470
1331,4474
1332,4477
1333,4481
1334,4484
1335,4488
1336,4491
1337,4495
1338,4499
1339,4502
1340,4506
1341,4509
1342,4513
1343,4516
1344,4520
1345,4524
1346,4527
1347,4531
1348,4534
1349,4538
1350,4542
1351,4545
1352,4549
1353,4552
1354,4556
1355,4560
1356,4563
1357,4567
1358,4570
1359,4574
1360,4577
1361,4581
1362,4584
1363,4588
1364,4591
1365,4595
1366,4598
1367,4602
1368,4605
1369,4609
1370,4612
1371,4616
1372,4619
1373,4623
1374,4626
1375,4630
1376,4633
1377,4637
1378,4640
1379,4644
1380,4647
1381,4651
1382,4654
1383,4658
1384,4662
1385,4665
1386,4669
1387,4672
1388,4676
1389,4679
1390,4683
1391,4686
1392,4690
1393,4693
1394,4697
1395,4700
1396,4704
1397,4708
1398,4711
1399,4715
1400,4718
1401,4722
1402,4725
1403,4729
1404,4732
1405,4736
1406,4739
1407,4743
1408,4746
1409,4750
1410,4753
1411,4757
1412,4760
1413,4764
1414,4767
1415,4771
1416,4774
1417,4778
1418,4781
1419,4785
1420,4788
1421,4791
1422,4795
1423,4798
1424,4802
1425,4805
1426,4809
1427,4812
1428,4815
1429,4819
1430,4822
1431,4826
1432,4829
1433,4833
1434,4836
1435,4839
1436,4843
1437,4846
1438,4850
1439,4853
1440,4857
1441,4860
1442,4863
1443,4867
1444,4870
1445,4874
1446,4877
1447,4880
1448,4884
1449,4887
1450,4891
1451,4894
1452,4898
1453,4901
1454,4905
1455,4908
1456,4911
1457,4915
1458,4918
1459,4922
1460,4925
1461,4929
1462,4932
1463,4935
1464,4939
1465,4942
1466,4946
1467,4949
1468,4952
1469,4956
1470,4959
1471,4963
1472,4966
1473,4970
1474,4973
1475,4976
1476,4980
1477,4983
1478,4987
1479,4990
1480,4994
1481,4997
1482,5001
1483,5004
1484,5008
1485,5011
1486,5015
1487,5018
1488,5022
1489,5026
1490,5029
1491,5033
1492,5036
1493,5040
1494,5043
1495,5047
1496,5050
1497,5054
1498,5057
1499,5061
1500,5064
1501,5068
1502,5071
1503,5075
1504,5079
1505,5082
1506,5086
1507,5089
1508,5093
1509,5096
1510,5100
1511,5104
1512,5107
1513,5111
1514,5115
1515,5118
1516,5122
1517,5125
1518,5129
1519,5133
1520,5136
1521,5140
1522,5143
1523,5147
1524,5150
1525,5154
1526,5157
1527,5161
1528,5165
1529,5168
1530,5172
1531,5175
1532,5179
1533,5182
1534,5186
1535,5189
1536,5193
1537,5197
1538,5200
1539,5204
1540,5207
1541,5211
1542,5214
1543,5218
1544,5221
1545,5225
1546,5228
1547,5232
1548,5235
1549,5239
1550,5242
1551,5246
1552,5249
1553,5253
1554,5256
1555,5260
1556,5263
1557,5267
1558,5270
1559,5274
1560,5277
1561,5281
1562,5284
1563,5287
1564,5291
1565,5294
1566,5298
1567,5301
1568,5305
1569,5308
1570,5312
1571,5315
1572,5319
1573,5322
1574,5326
1575,5329
1576,5333
1577,5336
1578,5339
1579,5343
1580,5346
1581,5350
1582,5353
1583,5357
1584,5360
1585,5364
1586,5367
1587,5370
1588,5374
1589,5377
1590,5381
1591,5384
1592,5387
1593,5391
1594,5394
1595,5398
1596,5401
1597,5404
1598,5408
1599,5411
1600,5415
1601,5418
1602,5421
1603,5425
1604,5428
1605,5432
1606,5435
1607,5439
1608,5442
1609,5446
1610,5449
1611,5453
1612,5456
1613,5460
1614,5463
1615,5467
1616,5470
1617,5474
1618,5477
1619,5481
1620,5484
1621,5488
1622,5491
1623,5495
1624,5498
1625,5501
1626,5505
1627,5508
1628,5511
1629,5515
1630,5518
1631,5521
1632,5525
1633,5528
1634,5532
1635,5535
1636,5539
1637,5542
1638,5546
1639,5549
1640,5553
1641,5556
1642,5560
1643,5563
1644,5567
1645,5570
1646,5574
1647,5577
1648,5580
1649,5584
1650,5587
1651,5591
1652,5594
1653,5598
1654,5601
1655,5604
1656,5608
1657,5611
1658,5614
1659,5618
1660,5621
1661,5625
1662,5628
1663,5631
1664,5635
1665,5638
1666,5642
1667,5645
1668,5649
1669,5652
1670,5655
1671,5659
1672,5662
1673,5666
1674,5669
1675,5673
1676,5676
1677,5680
1678,5683
1679,5687
1680,5690
1681,5694
1682,5697
1683,5701
1684,5704
1685,5708
1686,5711
1687,5715
1688,5718
1689,5722
1690,5725
1691,5729
1692,5732
1693,5736
1694,5739
1695,5742
1696,5746
1697,5749
1698,5753
1699,5756
1700,5760
1701,5763
1702,5767
1703,5770
1704,5774
1705,5778
1706,5781
1707,5785
1708,5788
1709,5792
1710,5796
1711,5799
1712,5803
1713,5806
1714,5810
1715,5814
1716,5817
1717,5821
1718,5824
1719,5828
1720,5831
1721,5835
1722,5839
1723,5842
1724,5846
1725,5849
1726,5853
1727,5856
1728,5860
1729,5863
1730,5867
1731,5870
1732,5874
1733,5878
1734,5881
1735,5885
1736,5888
1737,5892
1738,5895
1739,5899
1740,5903
1741,5906
1742,5910
1743,5913
1744,5917
1745,5920
1746,5924
1747,5927
1748,5931
1749,5934
1750,5938
1751,5941
1752,5944
1753,5948
1754,5951
1755,5955
1756,5958
1757,5961
1758,5965
1759,5968
1760,5972
1761,5975
1762,5978
1763,5981
1764,5985
1765,5988
1766,5991
1767,5995
1768,5998
1769,6002
1770,6005
1771,6008
1772,6012
1773,6015
1774,6019
1775,6022
1776,6025
1777,6029
1778,6032
1779,6035
1780,6039
1781,6042
1782,6045
1783,6049
1784,6052
1785,6055
1786,6058
1787,6062
1788,6065
1789,6068
1790,6072
1791,6075
1792,6079
1793,6082
1794,6085
1795,6089
1796,6092
1797,6095
1798,6099
1799,6102
1800,6105
1801,6109
1802,6112
1803,6115
1804,6119
1805,6122
1806,6125
1807,6128
1808,6132
1809,6135
1810,6138
1811,6142
1812,6145
1813,6148
1814,6151
1815,6155
1816,6158
1817,6161
1818,6164
1819,6168
1820,6171
1821,6174
1822,6177
1823,6180
1824,6184
1825,6187
1826,6190
1827,6193
1828,6196
1829,6199
1830,6203
1831,6206
1832,6209
1833,6212
1834,6215
1835,6219
1836,6222
1837,6225
1838,6228
1839,6232
1840,6235
1841,6238
1842,6241
1843,6245
1844,6248
1845,6251
1846,6254
1847,6257
1848,6261
1849,6264
1850,6267
1851,6270
1852,6273
1853,6276
1854,6279
1855,6283
1856,6286
1857,6289
1858,6292
1859,6296
1860,6299
1861,6302
1862,6305
1863,6309
1864,6312
1865,6315
1866,6319
1867,6322
1868,6325
1869,6329
1870,6332
1871,6335
1872,6339
1873,6342
1874,6346
1875,6349
1876,6353
1877,6356
1878,6359
1879,6363
1880,6366
1881,6370
1882,6373
1883,6377
1884,6380
1885,6384
1886,6387
1887,6391
1888,6394
1889,6398
1890,6401
1891,6404
1892,6408
1893,6411
1894,6415
1895,6418
1896,6422
1897,6425
1898,6428
1899,6432
1900,6435
1901,6439
1902,6442
1903,6445
1904,6449
1905,6452
1906,6456
1907,6459
1908,6462
1909,6466
1910,6469
1911,6472
1912,6476
1913,6479
1914,6482
1915,6486
1916,6489
1917,6492
1918,6496
1919,6499
1920,6502
1921,6506
1922,6509
1923,6512
1924,6516
1925,6519
1926,6522
1927,6525
1928,6529
1929,6532
1930,6535
1931,6538
1932,6542
1933,6545
1934,6548
1935,6551
1936,6554
1937,6558
1938,6561
1939,6564
1940,6567
1941,6570
1942,6574
1943,6577
1944,6580
1945,6583
1946,6587
1947,6590
1948,6593
1949,6596
1950,6599
1951,6603
1952,6606
1953,6609
1954,6612
1955,6615
1956,6618
1957,6621
1958,6624
1959,6627
1960,6631
1961,6634
1962,6637
1963,6640
1964,6643
1965,6646
1966,6649
1967,6652
1968,6656
1969,6659
1970,6662
1971,6665
1972,6668
1973,6671
1974,6675
1975,6678
1976,6681
1977,6684
1978,6687
1979,6691
1980,6694
1981,6697
1982,6700
1983,6704
1984,6707
1985,6710
1986,6713
1987,6717
1988,6720
1989,6723
1990,6726
1991,6729
1992,6733
1993,6736
1994,6739
1995,6742
1996,6746
1997,6749
1998,6752
1999,6755
2000,6759
2001,6762
2002,6765
2003,6768
2004,6772
2005,6775
2006,6778
2007,6782
2008,6785
2009,6788
2010,6792
2011,6795
2012,6799
2013,6802
2014,6805
2015,6809
2016,6812
2017,6815
2018,6819
2019,6822
2020,6826
2021,6829
2022,6832
2023,6836
2024,6839
2025,6842
2026,6846
2027,6849
2028,6853
2029,6857
2030,6860
2031,6864
2032,6867
2033,6871
2034,6874
2035,6878
2036,6881
2037,6885
2038,6888
2039,6892
2040,6896
2041,6899
2042,6903
2043,6906
2044,6910
2045,6913
2046,6917
2047,6921
2048,6924
2049,6928
2050,6932
2051,6935
2052,6939
2053,6943
2054,6947
2055,6950
2056,6954
2057,6958
2058,6961
2059,6965
2060,6968
2061,6972
2062,6975
2063,6979
2064,6983
2065,6986
2066,6990
2067,6993
2068,6997
2069,7000
2070,7004
2071,7007
2072,7010
2073,7014
2074,7017
2075,7021
2076,7024
2077,7027
2078,7031
2079,7034
2080,7038
2081,7041
2082,7045
